P [MPa]	rho [kg/m3]	eta [mPa *s]
-2.08	716.46	0.605
22.9	734.67	0.803
47.9	749.22	0.957
98.3	772.24	1.6
148.3	790.25	2.18
248.5	818.22	4.56
398.7	849.17	13.5
498.4	865.64	26.6
598.5	879.9	65
698	892.6	175
806	903.5	523
899	914.4	1480
973	921.2	3528
1000	923.7	4948
